Simulation created and run on: 
Thu Jan 12 08:55:04 2023


Time (s), Height (m), Velocity (m/s), Acceleration (m/s^2), Deployment Angle (degrees)
0.10035, 791.314, 281.464, -30.6803, 47.8
0.200373, 819.314, 278.422, -30.1592, 47.8
0.300402, 847.014, 275.43, -29.6543, 47.8
0.400419, 874.414, 272.489, -29.1649, 47.8
0.500591, 901.564, 269.592, -28.6897, 47.8
0.600718, 928.414, 266.742, -28.2291, 47.8
0.70078, 954.964, 263.94, -27.7825, 47.8
0.80095, 981.264, 261.179, -27.3487, 47.8
0.901021, 1007.26, 258.463, -26.928, 47.8
1.00117, 1033.01, 255.787, -26.5192, 47.8
1.10118, 1058.46, 253.155, -26.1227, 47.8
1.20124, 1083.66, 250.56, -25.7373, 47.8
1.30133, 1108.61, 248.003, -25.3627, 47.8
1.40144, 1133.31, 245.483, -24.9986, 47.8
1.50155, 1157.76, 242.998, -24.6445, 47.8
1.60164, 1181.96, 240.549, -24.3003, 47.8
1.70171, 1205.91, 238.134, -23.9655, 47.8
1.80174, 1229.61, 235.753, -23.64, 47.8
1.90192, 1253.11, 233.401, -23.3227, 47.8
2.00203, 1276.36, 231.081, -23.0141, 47.8
2.10206, 1299.36, 228.794, -22.7139, 47.8
2.20221, 1322.16, 226.534, -22.4212, 47.8
2.30225, 1344.71, 224.306, -22.1364, 47.8
2.40238, 1367.06, 222.103, -21.8588, 47.8
2.50261, 1389.21, 219.926, -21.588, 47.8
2.60268, 1411.11, 217.779, -21.3245, 47.8
2.70281, 1432.81, 215.657, -21.0675, 47.8
2.80299, 1454.31, 213.558, -20.8169, 47.8
2.90322, 1475.61, 211.484, -20.5723, 47.8
3.00324, 1496.66, 209.439, -20.3343, 47.8
3.10328, 1517.51, 207.416, -20.1021, 47.8
3.20332, 1538.16, 205.417, -19.8756, 47.8
3.30336, 1558.61, 203.439, -19.6545, 47.8
3.40338, 1578.86, 201.484, -19.4388, 47.8
3.50362, 1598.96, 199.546, -19.2277, 47.8
3.60383, 1618.86, 197.63, -19.0218, 47.8
3.704, 1638.56, 195.735, -18.8208, 47.8
3.8041, 1658.06, 193.861, -18.6246, 47.8
3.90414, 1677.36, 192.007, -18.4331, 47.8
4.00436, 1696.51, 190.169, -18.2457, 47.8
4.10448, 1715.46, 188.352, -18.0627, 47.8
4.20451, 1734.21, 186.554, -17.8842, 47.8
4.3047, 1752.81, 184.771, -17.7094, 47.8
4.40476, 1771.21, 183.008, -17.5387, 47.8
4.50496, 1789.46, 181.258, -17.3717, 47.8
4.60502, 1807.51, 179.528, -17.2086, 47.8
4.70521, 1825.41, 177.812, -17.0489, 47.8
4.80523, 1843.11, 176.115, -16.893, 47.8
4.90536, 1860.66, 174.431, -16.7404, 47.8
5.0056, 1878.06, 172.761, -16.591, 47.8
5.10564, 1895.26, 171.108, -16.445, 47.8
5.20576, 1912.31, 169.469, -16.3021, 47.8
5.30597, 1929.21, 167.842, -16.1622, 47.8
5.40625, 1945.96, 166.229, -16.0252, 47.8
5.50629, 1962.51, 164.632, -15.8914, 47.8
5.60639, 1978.91, 163.048, -15.7603, 47.8
5.70654, 1995.16, 161.476, -15.632, 47.8
5.80673, 2011.26, 159.916, -15.5063, 47.8
5.90696, 2027.21, 158.368, -15.3831, 47.8
6.00722, 2043.01, 156.832, -15.2625, 47.8
6.1075, 2058.66, 155.308, -15.1444, 47.8
6.20779, 2074.16, 153.795, -15.0287, 47.8
6.30809, 2089.51, 152.293, -14.9154, 47.8
6.40839, 2104.71, 150.803, -14.8044, 47.8
6.50868, 2119.76, 149.323, -14.6956, 47.8
6.60896, 2134.66, 147.855, -14.5891, 47.8
6.70922, 2149.41, 146.398, -14.4848, 47.8
6.80944, 2164.01, 144.951, -14.3826, 47.8
6.90963, 2178.46, 143.515, -14.2824, 47.8
7.00977, 2192.76, 142.09, -14.1844, 47.8
7.10986, 2206.91, 140.675, -14.0883, 47.8
7.20988, 2220.91, 139.271, -13.9942, 47.8
7.31019, 2234.81, 137.871, -13.9017, 47.8
7.41043, 2248.56, 136.483, -13.8111, 47.8
7.51058, 2262.16, 135.104, -13.7223, 47.8
7.61065, 2275.61, 133.735, -13.6354, 47.8
7.71098, 2288.96, 132.371, -13.5499, 47.8
7.81122, 2302.16, 131.017, -13.4661, 47.8
7.91134, 2315.21, 129.673, -13.3841, 47.8
8.01173, 2328.16, 128.334, -13.3035, 47.8
8.11199, 2340.96, 127.004, -13.2245, 47.8
8.21212, 2353.61, 125.684, -13.1472, 47.8
8.3125, 2366.16, 124.368, -13.0711, 47.8
8.41273, 2378.56, 123.061, -12.9967, 47.8
8.51281, 2390.81, 121.764, -12.9237, 47.8
8.61312, 2402.96, 120.471, -12.852, 47.8
8.71327, 2414.96, 119.188, -12.7818, 47.8
8.81365, 2426.86, 117.908, -12.7127, 47.8
8.91385, 2438.61, 116.638, -12.6451, 47.8
9.01428, 2450.26, 115.371, -12.5786, 47.8
9.11451, 2461.76, 114.114, -12.5136, 47.8
9.21452, 2473.11, 112.866, -12.4498, 47.8
9.31475, 2484.36, 111.621, -12.3872, 47.8
9.41475, 2495.46, 110.385, -12.3259, 47.8
9.51496, 2506.46, 109.153, -12.2656, 47.8
9.61539, 2517.36, 107.924, -12.2063, 47.8
9.71557, 2528.11, 106.705, -12.1483, 47.8
9.81595, 2538.76, 105.488, -12.0912, 47.8
9.91606, 2549.26, 104.28, -12.0354, 47.8
10.0164, 2559.66, 103.076, -11.9805, 47.8
10.1164, 2569.91, 101.88, -11.9268, 47.8
10.2166, 2580.06, 100.687, -11.8741, 47.8
10.317, 2590.11, 99.4978, -11.8222, 47.8
10.4171, 2600.01, 98.317, -11.7714, 47.8
10.5174, 2609.81, 97.1391, -11.7215, 47.8
10.6179, 2619.51, 95.9639, -11.6725, 47.8
10.718, 2629.06, 94.7976, -11.6246, 47.8
10.8183, 2638.51, 93.634, -11.5774, 47.8
10.9188, 2647.86, 92.473, -11.5311, 47.8
11.0189, 2657.06, 91.3208, -11.4858, 47.8
11.1192, 2666.16, 90.1712, -11.4414, 47.8
11.2196, 2675.16, 89.0241, -11.3976, 47.8
11.3197, 2684.01, 87.8859, -11.3549, 47.8
11.4199, 2692.76, 86.7501, -11.313, 47.8
11.5203, 2701.41, 85.6167, -11.2717, 47.8
11.6208, 2709.96, 84.4855, -11.2312, 47.8
11.7209, 2718.36, 83.3634, -11.1917, 47.8
11.8212, 2726.66, 82.2434, -11.1528, 47.8
11.9215, 2734.86, 81.1257, -11.1147, 47.8
12.0221, 2742.96, 80.0102, -11.0772, 47.8
12.1221, 2750.91, 78.9036, -11.0406, 47.8
12.2223, 2758.76, 77.7992, -11.0047, 47.8
12.3227, 2766.51, 76.6969, -10.9695, 47.8
12.4231, 2774.16, 75.5966, -10.9349, 47.8
12.5237, 2781.71, 74.4981, -10.9009, 47.8
12.6238, 2789.11, 73.409, -10.8678, 47.8
12.724, 2796.41, 72.3218, -10.8353, 47.8
12.8243, 2803.61, 71.2365, -10.8034, 47.8
12.9248, 2810.71, 70.153, -10.7722, 47.8
13.0253, 2817.71, 69.0713, -10.7415, 47.8
13.126, 2824.61, 67.9912, -10.7114, 47.8
13.2261, 2831.36, 66.9208, -10.6821, 47.8
13.3263, 2838.01, 65.8522, -10.6533, 47.8
13.4265, 2844.56, 64.7852, -10.6252, 47.8
13.5269, 2851.01, 63.7199, -10.5976, 47.8
13.6274, 2857.36, 62.6563, -10.5705, 47.8
13.728, 2863.61, 61.5941, -10.544, 47.8
13.8288, 2869.76, 60.5334, -10.5181, 47.8
13.9296, 2875.81, 59.4741, -10.4926, 47.8
14.0297, 2881.71, 58.4251, -10.4679, 47.8
14.1299, 2887.51, 57.3777, -10.4437, 47.8
14.2301, 2893.21, 56.3318, -10.4201, 47.8
14.3305, 2898.81, 55.2873, -10.3969, 47.8
14.4309, 2904.31, 54.2442, -10.3743, 47.8
14.5315, 2909.71, 53.2025, -10.3521, 47.8
14.6321, 2915.01, 52.162, -10.3304, 47.8
14.7328, 2920.21, 51.1228, -10.3092, 47.8
14.8336, 2925.31, 50.0848, -10.2885, 47.8
14.9344, 2930.31, 49.0478, -10.2683, 47.8
15.0354, 2935.21, 48.012, -10.2486, 47.8
15.1354, 2939.96, 46.9879, -10.2295, 47.8
15.2355, 2944.61, 45.9653, -10.2109, 47.8
15.3356, 2949.16, 44.944, -10.1927, 47.8
15.4358, 2953.61, 43.924, -10.175, 47.8
15.536, 2957.96, 42.9052, -10.1577, 47.8
15.6362, 2962.21, 41.8877, -10.1409, 47.8
15.7365, 2966.36, 40.8713, -10.1245, 47.8
15.8369, 2970.41, 39.8561, -10.1086, 47.8
15.9373, 2974.36, 38.842, -10.093, 47.8
16.0378, 2978.21, 37.8289, -10.0779, 47.8
16.1382, 2981.96, 36.8169, -10.0633, 47.8
16.2388, 2985.61, 35.8059, -10.049, 47.8
16.3394, 2989.16, 34.7958, -10.0352, 47.8
16.44, 2992.61, 33.7867, -10.0218, 47.8
16.5407, 2995.96, 32.7784, -10.0088, 47.8
16.6414, 2999.21, 31.7709, -9.99614, 47.8
16.7422, 3002.36, 30.7643, -9.98392, 47.8
16.843, 3005.41, 29.7583, -9.97209, 47.8
16.9438, 3008.36, 28.7531, -9.96066, 47.8
17.0448, 3011.21, 27.7485, -9.9496, 47.8
17.1457, 3013.96, 26.7445, -9.93893, 47.8
17.2467, 3016.61, 25.741, -9.92862, 47.8
17.3478, 3019.16, 24.738, -9.91868, 47.8
17.4489, 3021.61, 23.7355, -9.90909, 47.8
17.5501, 3023.96, 22.7332, -9.89986, 47.8
17.6514, 3026.21, 21.7313, -9.89095, 47.8
17.7527, 3028.36, 20.7295, -9.88238, 47.8
17.8541, 3030.41, 19.7278, -9.87411, 47.8
17.9556, 3032.36, 18.7262, -9.86613, 47.8
18.0572, 3034.21, 17.7243, -9.85842, 47.8
18.1589, 3035.96, 16.7222, -9.85094, 47.8
18.2607, 3037.61, 15.7196, -9.84366, 47.8
18.3627, 3039.16, 14.7163, -9.83652, 47.8
18.4648, 3040.61, 13.712, -9.82945, 47.8
18.5671, 3041.96, 12.7064, -9.82234, 47.8
18.6697, 3043.21, 11.6989, -9.81504, 47.8
18.7727, 3044.36, 10.689, -9.80732, 47.8
18.8761, 3045.41, 9.67572, -9.79884, 47.8
18.98, 3046.36, 8.65775, -9.789, 47.8
19.0847, 3047.21, 7.63307, -9.7768, 47.8
19.1907, 3047.96, 6.59843, -9.76034, 47.8
19.2984, 3048.61, 5.5481, -9.73565, 47.8
19.4093, 3049.16, 4.47088, -9.69309, 47.8
19.5115, 3049.56, 3.48438, -9.61861, 47.8
19.6146, 3049.86, 2.50117, -9.45106, 47.8
19.7207, 3050.06, 1.52736, -8.94903, 47.8
19.8457, 3050.16, 0.609448, -6.74486, 47.8
