Simulation created and run on: 
Tue Jan 17 09:34:11 2023


Time (s), Height (m), Velocity (m/s), Acceleration (m/s^2), Deployment Angle (degrees)
0, 762.914, 284.57, -9.80665, 0
0.100172, 791.264, 281.47, -30.6812, 47.8
0.200193, 819.264, 278.427, -30.1601, 47.8
0.30022, 846.964, 275.436, -29.6552, 47.8
0.400235, 874.364, 272.495, -29.1658, 47.8
0.500406, 901.514, 269.597, -28.6906, 47.8
0.60053, 928.364, 266.748, -28.23, 47.8
0.70059, 954.914, 263.945, -27.7833, 47.8
0.800759, 981.214, 261.184, -27.3495, 47.8
0.900828, 1007.21, 258.469, -26.9288, 47.8
1.00097, 1032.96, 255.792, -26.52, 47.8
1.10099, 1058.41, 253.16, -26.1234, 47.8
1.20104, 1083.61, 250.566, -25.7381, 47.8
1.30113, 1108.56, 248.008, -25.3635, 47.8
1.40123, 1133.26, 245.488, -24.9993, 47.8
1.50134, 1157.71, 243.003, -24.6452, 47.8
1.60143, 1181.91, 240.554, -24.301, 47.8
1.7015, 1205.86, 238.139, -23.9662, 47.8
1.80153, 1229.56, 235.758, -23.6407, 47.8
1.90171, 1253.06, 233.406, -23.3234, 47.8
2.00182, 1276.31, 231.086, -23.0147, 47.8
2.10184, 1299.31, 228.799, -22.7145, 47.8
2.20199, 1322.11, 226.539, -22.4218, 47.8
2.30203, 1344.66, 224.31, -22.1371, 47.8
2.40216, 1367.01, 222.108, -21.8594, 47.8
2.50238, 1389.16, 219.931, -21.5886, 47.8
2.60245, 1411.06, 217.784, -21.3251, 47.8
2.70258, 1432.76, 215.661, -21.0681, 47.8
2.80276, 1454.26, 213.563, -20.8174, 47.8
2.90298, 1475.56, 211.489, -20.5729, 47.8
3.003, 1496.61, 209.444, -20.3349, 47.8
3.10304, 1517.46, 207.421, -20.1027, 47.8
3.20308, 1538.11, 205.421, -19.8761, 47.8
3.30311, 1558.56, 203.444, -19.655, 47.8
3.40313, 1578.81, 201.489, -19.4393, 47.8
3.50337, 1598.91, 199.551, -19.2282, 47.8
3.60358, 1618.81, 197.635, -19.0223, 47.8
3.70374, 1638.51, 195.74, -18.8213, 47.8
3.80384, 1658.01, 193.865, -18.6251, 47.8
3.90388, 1677.31, 192.012, -18.4336, 47.8
4.00409, 1696.46, 190.174, -18.2462, 47.8
4.10422, 1715.41, 188.356, -18.0632, 47.8
4.20424, 1734.16, 186.559, -17.8846, 47.8
4.30442, 1752.76, 184.776, -17.7098, 47.8
4.40448, 1771.16, 183.012, -17.5392, 47.8
4.50469, 1789.41, 181.263, -17.3721, 47.8
4.60474, 1807.46, 179.533, -17.209, 47.8
4.70493, 1825.36, 177.817, -17.0494, 47.8
4.80495, 1843.06, 176.12, -16.8935, 47.8
4.90508, 1860.61, 174.436, -16.7408, 47.8
5.00531, 1878.01, 172.766, -16.5914, 47.8
5.10535, 1895.21, 171.113, -16.4455, 47.8
5.20547, 1912.26, 169.474, -16.3026, 47.8
5.30567, 1929.16, 167.847, -16.1626, 47.8
5.40595, 1945.91, 166.233, -16.0256, 47.8
5.50599, 1962.46, 164.637, -15.8918, 47.8
5.60609, 1978.86, 163.053, -15.7607, 47.8
5.70623, 1995.11, 161.481, -15.6324, 47.8
5.80642, 2011.21, 159.921, -15.5066, 47.8
5.90665, 2027.16, 158.373, -15.3835, 47.8
6.0069, 2042.96, 156.837, -15.2629, 47.8
6.10717, 2058.61, 155.313, -15.1448, 47.8
6.20746, 2074.11, 153.799, -15.0291, 47.8
6.30776, 2089.46, 152.298, -14.9157, 47.8
6.40806, 2104.66, 150.807, -14.8047, 47.8
6.50835, 2119.71, 149.328, -14.696, 47.8
6.60862, 2134.61, 147.86, -14.5895, 47.8
6.70888, 2149.36, 146.403, -14.4851, 47.8
6.8091, 2163.96, 144.956, -14.3829, 47.8
6.90928, 2178.41, 143.52, -14.2828, 47.8
7.00942, 2192.71, 142.095, -14.1847, 47.8
7.1095, 2206.86, 140.68, -14.0886, 47.8
7.20952, 2220.86, 139.276, -13.9945, 47.8
7.30983, 2234.76, 137.876, -13.902, 47.8
7.41006, 2248.51, 136.488, -13.8114, 47.8
7.51021, 2262.11, 135.109, -13.7226, 47.8
7.61027, 2275.56, 133.74, -13.6357, 47.8
7.71061, 2288.91, 132.376, -13.5502, 47.8
7.81084, 2302.11, 131.022, -13.4665, 47.8
7.91095, 2315.16, 129.678, -13.3844, 47.8
8.01134, 2328.11, 128.339, -13.3038, 47.8
8.1116, 2340.91, 127.009, -13.2248, 47.8
8.21172, 2353.56, 125.689, -13.1475, 47.8
8.3121, 2366.11, 124.373, -13.0714, 47.8
8.41233, 2378.51, 123.067, -12.997, 47.8
8.51239, 2390.76, 121.77, -12.924, 47.8
8.61271, 2402.91, 120.477, -12.8523, 47.8
8.71285, 2414.91, 119.193, -12.7821, 47.8
8.81323, 2426.81, 117.914, -12.713, 47.8
8.91342, 2438.56, 116.643, -12.6454, 47.8
9.01384, 2450.21, 115.377, -12.5789, 47.8
9.11407, 2461.71, 114.119, -12.5138, 47.8
9.21407, 2473.06, 112.871, -12.4501, 47.8
9.3143, 2484.31, 111.627, -12.3875, 47.8
9.41475, 2495.46, 110.385, -12.3259, 47.8
9.51496, 2506.46, 109.153, -12.2656, 47.8
9.61539, 2517.36, 107.924, -12.2063, 47.8
9.71557, 2528.11, 106.705, -12.1483, 47.8
9.81595, 2538.76, 105.488, -12.0912, 47.8
9.91606, 2549.26, 104.28, -12.0354, 47.8
10.0164, 2559.66, 103.076, -11.9805, 47.8
10.1164, 2569.91, 101.88, -11.9268, 47.8
10.2166, 2580.06, 100.687, -11.8741, 47.8
10.317, 2590.11, 99.4978, -11.8222, 47.8
10.4171, 2600.01, 98.317, -11.7714, 47.8
10.5174, 2609.81, 97.1391, -11.7215, 47.8
10.6179, 2619.51, 95.9639, -11.6725, 47.8
10.718, 2629.06, 94.7976, -11.6246, 47.8
10.8183, 2638.51, 93.634, -11.5774, 47.8
10.9188, 2647.86, 92.473, -11.5311, 47.8
11.0189, 2657.06, 91.3208, -11.4858, 47.8
11.1192, 2666.16, 90.1712, -11.4414, 47.8
11.2196, 2675.16, 89.0241, -11.3976, 47.8
11.3197, 2684.01, 87.8859, -11.3549, 47.8
11.4199, 2692.76, 86.7501, -11.313, 47.8
11.5203, 2701.41, 85.6167, -11.2717, 47.8
11.6208, 2709.96, 84.4855, -11.2312, 47.8
11.7209, 2718.36, 83.3634, -11.1917, 47.8
11.8212, 2726.66, 82.2434, -11.1528, 47.8
11.9215, 2734.86, 81.1257, -11.1147, 47.8
12.0221, 2742.96, 80.0102, -11.0772, 47.8
12.1221, 2750.91, 78.9036, -11.0406, 47.8
12.2223, 2758.76, 77.7992, -11.0047, 47.8
12.3227, 2766.51, 76.6969, -10.9695, 47.8
12.4231, 2774.16, 75.5966, -10.9349, 47.8
12.5237, 2781.71, 74.4981, -10.9009, 47.8
12.6238, 2789.11, 73.409, -10.8678, 47.8
12.724, 2796.41, 72.3218, -10.8353, 47.8
12.8243, 2803.61, 71.2365, -10.8034, 47.8
12.9248, 2810.71, 70.153, -10.7722, 47.8
13.0253, 2817.71, 69.0713, -10.7415, 47.8
13.126, 2824.61, 67.9912, -10.7114, 47.8
13.2261, 2831.36, 66.9208, -10.6821, 47.8
13.3263, 2838.01, 65.8522, -10.6533, 47.8
13.4265, 2844.56, 64.7852, -10.6252, 47.8
13.5269, 2851.01, 63.7199, -10.5976, 47.8
13.6274, 2857.36, 62.6563, -10.5705, 47.8
13.728, 2863.61, 61.5941, -10.544, 47.8
13.8288, 2869.76, 60.5334, -10.5181, 47.8
13.9296, 2875.81, 59.4741, -10.4926, 47.8
14.0297, 2881.71, 58.4251, -10.4679, 47.8
14.1299, 2887.51, 57.3777, -10.4437, 47.8
14.2301, 2893.21, 56.3318, -10.4201, 47.8
14.3305, 2898.81, 55.2873, -10.3969, 47.8
14.4309, 2904.31, 54.2442, -10.3743, 47.8
14.5315, 2909.71, 53.2025, -10.3521, 47.8
14.6321, 2915.01, 52.162, -10.3304, 47.8
14.7328, 2920.21, 51.1228, -10.3092, 47.8
14.8336, 2925.31, 50.0848, -10.2885, 47.8
14.9344, 2930.31, 49.0478, -10.2683, 47.8
15.0354, 2935.21, 48.012, -10.2486, 47.8
15.1354, 2939.96, 46.9879, -10.2295, 47.8
15.2355, 2944.61, 45.9653, -10.2109, 47.8
15.3356, 2949.16, 44.944, -10.1927, 47.8
15.4358, 2953.61, 43.924, -10.175, 47.8
15.536, 2957.96, 42.9052, -10.1577, 47.8
15.6362, 2962.21, 41.8877, -10.1409, 47.8
15.7365, 2966.36, 40.8713, -10.1245, 47.8
15.8369, 2970.41, 39.8561, -10.1086, 47.8
15.9373, 2974.36, 38.842, -10.093, 47.8
16.0378, 2978.21, 37.8289, -10.0779, 47.8
16.1382, 2981.96, 36.8169, -10.0633, 47.8
16.2388, 2985.61, 35.8059, -10.049, 47.8
16.3394, 2989.16, 34.7958, -10.0352, 47.8
16.44, 2992.61, 33.7867, -10.0218, 47.8
16.5407, 2995.96, 32.7784, -10.0088, 47.8
16.6414, 2999.21, 31.7709, -9.99614, 47.8
16.7422, 3002.36, 30.7643, -9.98392, 47.8
16.843, 3005.41, 29.7583, -9.97209, 47.8
16.9438, 3008.36, 28.7531, -9.96066, 47.8
17.0448, 3011.21, 27.7485, -9.9496, 47.8
17.1457, 3013.96, 26.7445, -9.93893, 47.8
17.2467, 3016.61, 25.741, -9.92862, 47.8
17.3478, 3019.16, 24.738, -9.91868, 47.8
17.4489, 3021.61, 23.7355, -9.90909, 47.8
17.5501, 3023.96, 22.7332, -9.89986, 47.8
17.6514, 3026.21, 21.7313, -9.89095, 47.8
17.7527, 3028.36, 20.7295, -9.88238, 47.8
17.8541, 3030.41, 19.7278, -9.87411, 47.8
17.9556, 3032.36, 18.7262, -9.86613, 47.8
18.0572, 3034.21, 17.7243, -9.85842, 47.8
18.1589, 3035.96, 16.7222, -9.85094, 47.8
18.2607, 3037.61, 15.7196, -9.84366, 47.8
18.3627, 3039.16, 14.7163, -9.83652, 47.8
18.4648, 3040.61, 13.712, -9.82945, 47.8
18.5671, 3041.96, 12.7064, -9.82234, 47.8
18.6697, 3043.21, 11.6989, -9.81504, 47.8
18.7727, 3044.36, 10.689, -9.80732, 47.8
18.8761, 3045.41, 9.67572, -9.79884, 47.8
18.98, 3046.36, 8.65775, -9.789, 47.8
19.0847, 3047.21, 7.63307, -9.7768, 47.8
19.1907, 3047.96, 6.59843, -9.76034, 47.8
19.2984, 3048.61, 5.5481, -9.73565, 47.8
19.4093, 3049.16, 4.47088, -9.69309, 47.8
19.5115, 3049.56, 3.48438, -9.61861, 47.8
19.6146, 3049.86, 2.50117, -9.45106, 47.8
19.7207, 3050.06, 1.52736, -8.94903, 47.8
19.8457, 3050.16, 0.609448, -6.74486, 47.8
