Simulation created and run on: 
Thu Feb  9 09:41:41 2023


Time (s), Height (m), Velocity (m/s), Acceleration (m/s^2), Deployment Angle (degrees)
0, 762.914, 284.57, -9.80665, 0
0.100025, 791.264, 282.298, -22.6011, 1.26895
0.200143, 819.414, 280.047, -22.3627, 1.67732
0.300168, 847.314, 277.82, -22.1719, 3.07765
0.400272, 875.014, 275.609, -22.0137, 4.47909
0.500452, 902.514, 273.41, -21.8861, 5.88158
0.600519, 929.764, 271.226, -21.7872, 7.28251
0.700655, 956.814, 269.048, -21.7147, 8.68439
0.80067, 983.614, 266.879, -21.6669, 10.0846
0.900748, 1010.21, 264.712, -21.6417, 11.4856
1.00089, 1036.61, 262.545, -21.6373, 12.8876
1.1009, 1062.76, 260.38, -21.6518, 14.2878
1.20098, 1088.71, 258.212, -21.6834, 15.6889
1.30113, 1114.46, 256.038, -21.7305, 17.0909
1.40115, 1139.96, 253.862, -21.7913, 18.4912
1.50124, 1165.26, 251.677, -21.8642, 19.8924
1.60141, 1190.36, 249.483, -21.9475, 21.2948
1.70146, 1215.21, 247.282, -22.0397, 22.6954
1.80159, 1239.86, 245.07, -22.1392, 24.0972
1.90161, 1264.26, 242.851, -22.2445, 25.4974
2.00172, 1288.46, 240.619, -22.3544, 26.899
2.10172, 1312.41, 238.377, -22.4672, 28.299
2.20183, 1336.16, 236.123, -22.5818, 29.7004
2.30183, 1359.66, 233.859, -22.6969, 31.1004
2.40195, 1382.96, 231.58, -22.8113, 32.5021
2.50198, 1406.01, 229.293, -22.9238, 33.9025
2.60214, 1428.86, 226.991, -23.0335, 35.3047
2.70221, 1451.46, 224.681, -23.1392, 36.7056
2.80243, 1473.86, 222.357, -23.2401, 38.1086
2.90257, 1496.01, 220.025, -23.3352, 39.5106
3.00263, 1517.91, 217.685, -23.4236, 40.9115
3.10286, 1539.61, 215.334, -23.5048, 42.3146
3.20302, 1561.06, 212.975, -23.578, 43.7169
3.30312, 1582.26, 210.612, -23.6424, 45.1182
3.40316, 1603.21, 208.244, -23.6978, 46.5187
3.50337, 1623.96, 205.867, -23.7436, 47.9216
3.60353, 1644.46, 203.487, -23.7793, 49.3238
3.70363, 1664.71, 201.105, -23.7911, 50.6765
3.80367, 1684.71, 198.763, -23.0492, 49.276
3.90387, 1704.51, 196.489, -22.3459, 47.8733
4.00393, 1724.06, 194.287, -21.6809, 46.4725
4.10408, 1743.41, 192.147, -21.0509, 45.0704
4.20429, 1762.56, 190.068, -20.4542, 43.6676
4.30453, 1781.51, 188.046, -19.8895, 42.2643
4.40476, 1800.26, 186.08, -19.3552, 40.861
4.50497, 1818.81, 184.166, -18.85, 39.4581
4.60512, 1837.16, 182.302, -18.3727, 38.0561
4.70518, 1855.31, 180.487, -17.922, 36.6552
4.80541, 1873.31, 178.712, -17.4956, 35.2521
4.9055, 1891.11, 176.981, -17.0936, 33.8509
5.00571, 1908.76, 175.286, -16.8394, 33.2456
5.10574, 1926.21, 173.598, -16.9079, 34.646
5.20589, 1943.51, 171.901, -16.975, 36.048
5.30615, 1960.66, 170.196, -17.0401, 37.4517
5.40625, 1977.61, 168.487, -17.1025, 38.853
5.50647, 1994.41, 166.77, -17.162, 40.2561
5.60653, 2011.01, 165.05, -17.2179, 41.6568
5.70672, 2027.46, 163.322, -17.27, 43.0594
5.80675, 2043.71, 161.592, -17.3178, 44.4598
5.90692, 2059.81, 159.855, -17.361, 45.8622
6.00693, 2075.71, 158.117, -17.3994, 47.2623
6.10709, 2091.46, 156.373, -17.4326, 48.6645
6.2071, 2107.01, 154.628, -17.4603, 50.0645
6.30726, 2122.41, 152.878, -17.4825, 51.4667
6.40759, 2137.66, 151.124, -17.4203, 52.3438
6.50775, 2152.71, 149.399, -17.0277, 50.9416
6.60806, 2167.61, 147.71, -16.6534, 49.5374
6.70814, 2182.31, 146.061, -16.2978, 48.1363
6.80831, 2196.86, 144.446, -15.9592, 46.7339
6.90856, 2211.26, 142.862, -15.6369, 45.3305
7.00885, 2225.51, 141.309, -15.3303, 43.9265
7.10918, 2239.61, 139.786, -15.0389, 42.5219
7.20951, 2253.56, 138.291, -14.7622, 41.1173
7.30984, 2267.36, 136.824, -14.4995, 39.7128
7.41013, 2281.01, 135.382, -14.2505, 38.3087
7.51038, 2294.51, 133.965, -14.0145, 36.9053
7.61056, 2307.86, 132.573, -13.7912, 35.5029
7.71064, 2321.06, 131.203, -13.5801, 34.1017
7.81101, 2334.16, 129.85, -13.3799, 32.6967
7.91126, 2347.11, 128.519, -13.191, 31.2933
8.01137, 2359.91, 127.207, -13.0401, 30.2657
8.11172, 2372.61, 125.897, -13.069, 31.6706
8.21193, 2385.16, 124.586, -13.0976, 33.0735
8.31199, 2397.56, 123.274, -13.1256, 34.4743
8.41231, 2409.86, 121.956, -13.153, 35.8786
8.51248, 2422.01, 120.637, -13.1793, 37.2809
8.6125, 2434.01, 119.317, -13.2043, 38.6812
8.71279, 2445.91, 117.992, -13.2279, 40.0852
8.81294, 2457.66, 116.666, -13.2497, 41.4872
8.91337, 2469.31, 115.334, -13.2697, 42.8932
9.01366, 2480.81, 114.003, -13.2877, 44.2972
9.11381, 2492.16, 112.671, -13.3033, 45.6992
9.21426, 2503.41, 111.334, -13.3167, 47.1054
9.31456, 2514.51, 109.998, -13.3275, 48.5096
9.41472, 2525.46, 108.662, -13.3357, 49.9117
9.51473, 2536.26, 107.328, -13.3412, 51.3117
9.61505, 2546.96, 105.99, -13.3439, 52.7162
9.71522, 2557.51, 104.653, -13.3437, 54.1185
9.81524, 2567.91, 103.319, -13.3406, 55.5186
9.91558, 2578.21, 101.984, -13.2245, 55.2142
10.0158, 2588.36, 100.668, -13.044, 53.8119
10.1162, 2598.41, 99.3662, -12.8709, 52.4051
10.2165, 2608.31, 98.0838, -12.7061, 51.0012
10.3166, 2618.06, 96.8205, -12.5491, 49.6006
10.4169, 2627.71, 95.5692, -12.399, 48.1962
10.517, 2637.21, 94.3358, -12.2564, 46.7955
10.6173, 2646.61, 93.1134, -12.1202, 45.3914
10.7178, 2655.91, 91.9015, -11.9904, 43.984
10.818, 2665.06, 90.7061, -11.8673, 42.581
10.9184, 2674.11, 89.5202, -11.7501, 41.1751
11.0185, 2683.01, 88.3499, -11.6394, 39.7741
11.1188, 2691.81, 87.1882, -11.5341, 38.3704
11.2192, 2700.51, 86.0346, -11.4342, 36.9642
11.3193, 2709.06, 84.8955, -11.34, 35.5637
11.4195, 2717.51, 83.7637, -11.2509, 34.1609
11.5199, 2725.86, 82.6388, -11.1665, 32.7559
11.6204, 2734.11, 81.5204, -11.0868, 31.3488
11.7204, 2742.21, 80.415, -11.0121, 29.9483
11.8206, 2750.21, 79.3155, -10.9417, 28.5459
11.9209, 2758.11, 78.2214, -10.8754, 27.1419
12.0213, 2765.91, 77.1325, -10.8131, 25.7361
12.1219, 2773.61, 76.0483, -10.7546, 24.3287
12.2225, 2781.21, 74.9679, -10.7271, 24.3523
12.3226, 2788.66, 73.8942, -10.7271, 25.7535
12.4228, 2796.01, 72.8193, -10.7271, 27.1561
12.5231, 2803.26, 71.7433, -10.7272, 28.5603
12.6235, 2810.41, 70.6661, -10.7271, 29.966
12.7241, 2817.46, 69.5876, -10.7268, 31.3734
12.8247, 2824.41, 68.5079, -10.7261, 32.7825
12.9248, 2831.21, 67.4348, -10.7251, 34.183
13.0249, 2837.91, 66.3607, -10.7236, 35.5851
13.1252, 2844.51, 65.2854, -10.7215, 36.9888
13.2256, 2851.01, 64.2092, -10.7189, 38.3941
13.3261, 2857.41, 63.1318, -10.7155, 39.8013
13.4268, 2863.71, 62.0534, -10.7114, 41.2103
13.5276, 2869.91, 60.974, -10.7066, 42.6213
13.6277, 2875.96, 59.9024, -10.7009, 44.0226
13.7279, 2881.91, 58.8302, -10.6945, 45.4256
13.8283, 2887.76, 57.7572, -10.6871, 46.8305
13.9288, 2893.51, 56.6836, -10.6789, 48.2372
14.0294, 2899.16, 55.6094, -10.6698, 49.6459
14.1302, 2904.71, 54.5345, -10.6597, 51.0567
14.2302, 2910.11, 53.469, -10.6488, 52.4565
14.3304, 2915.41, 52.4033, -10.637, 53.8581
14.4306, 2920.61, 51.3375, -10.6243, 55.2614
14.531, 2925.71, 50.2715, -10.6107, 56.6667
14.6316, 2930.71, 49.2055, -10.5963, 58.0739
14.7322, 2935.61, 48.1394, -10.5809, 59.4831
14.8331, 2940.41, 47.0732, -10.5648, 60.8946
14.9341, 2945.11, 46.007, -10.5478, 62.3082
15.0341, 2949.66, 44.9525, -10.5302, 63.7087
15.1343, 2954.11, 43.8985, -10.5119, 65.1108
15.2346, 2958.46, 42.845, -10.4929, 66.5148
15.3351, 2962.71, 41.7921, -10.4733, 67.9206
15.4357, 2966.86, 40.7408, -10.4292, 66.8483
15.5364, 2970.91, 39.6926, -10.3841, 65.4387
15.6372, 2974.86, 38.6475, -10.3412, 64.0271
15.7382, 2978.71, 37.6052, -10.3006, 62.6136
15.8394, 2982.46, 36.5654, -10.262, 61.1982
15.9407, 2986.11, 35.5279, -10.2256, 59.7809
16.0421, 2989.66, 34.4926, -10.1912, 58.3616
16.1421, 2993.06, 33.4744, -10.1593, 56.9612
16.2423, 2996.36, 32.4587, -10.1292, 55.5601
16.3424, 2999.56, 31.4455, -10.101, 54.1583
16.4427, 3002.66, 30.4345, -10.0745, 52.756
16.5429, 3005.66, 29.4257, -10.0497, 51.3531
16.6432, 3008.56, 28.4189, -10.0265, 49.9497
16.7436, 3011.36, 27.4141, -10.0049, 48.546
16.8439, 3014.06, 26.411, -9.98474, 47.1419
16.9443, 3016.66, 25.4097, -9.96602, 45.7376
17.0447, 3019.16, 24.41, -9.94865, 44.3331
17.1451, 3021.56, 23.4118, -9.93255, 42.9285
17.2455, 3023.86, 22.4151, -9.91766, 41.5238
17.346, 3026.06, 21.4198, -9.9039, 40.1193
17.4464, 3028.16, 20.4258, -9.89121, 38.7149
17.5468, 3030.16, 19.4332, -9.8795, 37.3108
17.6472, 3032.06, 18.4419, -9.8687, 35.9072
17.7476, 3033.86, 17.4518, -9.85872, 34.5041
17.8479, 3035.56, 16.4631, -9.84948, 33.1018
17.9482, 3037.16, 15.4758, -9.84088, 31.7004
18.0484, 3038.66, 14.4899, -9.83281, 30.3004
18.1486, 3040.06, 13.5056, -9.82515, 28.9019
18.2486, 3041.36, 12.5231, -9.81776, 27.5055
18.3529, 3042.61, 11.5001, -9.8101, 26.051
18.453, 3043.71, 10.5183, -9.80253, 24.655
18.5582, 3044.76, 9.48726, -9.79391, 23.189
18.6586, 3045.66, 8.50494, -9.78444, 21.7927
18.7588, 3046.46, 7.52517, -9.7728, 20.4006
18.8665, 3047.21, 6.4736, -9.75588, 18.908
18.9675, 3047.81, 5.4894, -9.73232, 17.5133
19.0685, 3048.31, 4.50814, -9.69389, 16.1267
19.1695, 3048.71, 3.53218, -9.62285, 14.7548
19.2706, 3049.01, 2.56739, -9.46765, 13.4139
19.3718, 3049.21, 1.63358, -9.0413, 12.154
19.5292, 3049.4, 0, -0, 10.3543
